ID,y
0,0.5912386379222946
1,0.6037058904130743
2,0.6161731429038491
3,0.6286403953946287
4,0.6411076478854055
5,0.6535749003761814
6,0.6660421528669623
7,0.6785094053577392
8,0.6909766578485173
9,0.7034439103392943
10,0.7159111628300732
11,0.7283784153208508
12,0.7408456678116261
13,0.7533129203024056
14,0.7657801727931803
15,0.778247425283959
16,0.7907146777747371
17,0.803181930265517
18,0.8156491827562926
19,0.8281164352470683
20,0.8405836877378488
21,0.8530509402286265
22,0.865518192719403
23,0.8779854452101786
24,0.8904526802100121
25,0.8968136947011994
26,0.8993588726709095
27,0.9019040506406169
28,0.9044492286103268
29,0.9069944065800355
30,0.9089021477066885
31,0.9105857773913693
32,0.9122694070760464
33,0.9139530367607261
34,0.9156366664454062
35,0.9173202961300871
36,0.9190039258147646
37,0.920687555499446
38,0.9223711851841265
39,0.9240548148688048
40,0.925738444553485
41,0.9274220742381656
42,0.9291057039228431
43,0.9307893336075239
44,0.9324729632922033
45,0.9341565929768824
46,0.9358402226615615
47,0.9375238523462435
48,0.9392074820309222
49,0.9408911117156018
50,0.9425747414002812
51,0.9442583710849596
52,0.9459420007696407
53,0.9476256304543187
54,0.9493092601389994
55,0.9509928898236814
56,0.9526765195083589
57,0.9543601491930392
58,0.9560437788777179
59,0.9577274085623991
60,0.9594110382470779
61,0.9610946679317557
62,0.9627782976164365
63,0.9644619273011157
64,0.966145556985796
65,0.9678291866704744
66,0.9695128163551544
67,0.9711964460398349
68,0.9728800757245156
69,0.9724401312274789
70,0.9718829275431494
71,0.971325723858822
72,0.9707685201744919
73,0.9702113164901622
74,0.9696541128058322
75,0.9690969091215041
76,0.9685397054371726
77,0.9679825017528436
78,0.9674252980685154
79,0.9668680943841845
80,0.9663108906998551
81,0.9657536870155258
82,0.9651964833311943
83,0.9646392796468637
84,0.9640820759625356
85,0.9635248722782034
86,0.9629676685938761
87,0.9624104649095462
88,0.9618532612252163
89,0.9612960575408862
90,0.960738853856556
91,0.9601816501722263
92,0.9596244464878978
93,0.9590672428035661
94,0.9585100391192375
95,0.9579528354349098
96,0.9573956317505785
97,0.9568384280662474
98,0.9562812243819162
99,0.9557240206975891
100,0.9551668170132562
101,0.9546096133289287
102,0.9540524096446
103,0.953495205960271
104,0.9529380022759399
105,0.9523807985916082
106,0.9518235949072801
107,0.9512663912229486
108,0.9507091875386204
109,0.9501519838542923
110,0.9495947801699602
111,0.9490375764856295
112,0.9484803728013009
113,0.9479231691169708
114,0.947365965432644
115,0.9468087617483129
116,0.9462515580639815
117,0.9456943543796509
118,0.945137150695323
119,0.9445799470109927
120,0.9440227433266639
121,0.9434655396423343
122,0.9429083359580033
123,0.9423511322736733
124,0.9417939285893449
125,0.9412367249050124
126,0.9406795212206832
127,0.9401223175363564
128,0.9395651138520251
129,0.9390079101676945
130,0.9384507064833663
131,0.937893502799037
132,0.9373362991147055
133,0.9367790954303757
134,0.9362218917460484
135,0.9356646880617164
136,0.9351074843773879
137,0.934550280693056
138,0.9339930770087284
139,0.9339090205284128
140,0.9339728304561281
141,0.9340366403838403
142,0.9341004503115543
143,0.9341642602392664
144,0.934228070166981
145,0.9342918800946932
146,0.9343556900224064
147,0.9344194999501209
148,0.9344833098778316
149,0.934639071522868
150,0.9348147138552027
151,0.9349903561875376
152,0.9351659985198733
153,0.9353416408522095
154,0.9355172831845451
155,0.9356929255168805
156,0.9358685678492178
157,0.936044210181552
158,0.9362198525138883
159,0.9363954948462218
160,0.9365711371785587
161,0.9367467795108932
162,0.9374597563379345
163,0.9396393827117749
164,0.9418190090856158
165,0.9439986354594555
166,0.9461782618332968
167,0.9483578882071382
168,0.9505718123925235
169,0.9528206162351994
170,0.9550694200778727
171,0.9573182239205478
172,0.9595670277632222
173,0.9618158316058963
174,0.9623953895984702
175,0.9620669020159942
176,0.9617384144335158
177,0.9614099268510382
178,0.9610814392685637
179,0.960752951686088
180,0.9604244641036096
181,0.9600959765211327
182,0.9597674889386554
183,0.9594390013561775
184,0.959110513773701
185,0.958782026191224
186,0.9584535386087492
187,0.9581250510262724
188,0.9577965634437947
189,0.9574680758613173
190,0.9571395882788413
191,0.9568111006963637
192,0.9564826131138866
193,0.9561541255314092
194,0.9558256379489334
195,0.955497150366455
196,0.9551686627839805
197,0.9548401752015026
198,0.9545116876190277
199,0.9541832000365489
200,0.9538547124540714
201,0.9535262248715951
202,0.9531977372891178
203,0.9528692497066412
204,0.9525407621241656
205,0.9522122745416896
206,0.9518837869592119
207,0.9515552993767332
208,0.9512268117942556
209,0.9508983242117813
210,0.9505698366293042
211,0.9502413490468268
212,0.9499128614643501
213,0.9495843738818729
214,0.9492558862993948
215,0.9489273987169206
216,0.9485989111344438
217,0.9482704235519653
218,0.9479419359694888
219,0.9476134483870119
220,0.9472849608045352
221,0.9469564732220589
222,0.9466279856395822
223,0.9462994980571034
224,0.9459710104746281
225,0.9456425228921509
226,0.9453140353096744
227,0.9449855477271959
228,0.9446570601447198
229,0.9443285725622416
230,0.9440000849797655
231,0.9436715973972902
232,0.9433431098148113
233,0.9430146222323365
234,0.9426861346498592
235,0.9423576470673821
236,0.9421787766487935
237,0.9421354773466922
238,0.9420921780445912
239,0.9420488787424878
240,0.9420055794403865
241,0.9419622801382826
242,0.9419189808361813
243,0.9418760526721376
244,0.9419072234958167
245,0.9433623531902146
246,0.9448174828846149
247,0.9462726125790136
248,0.9477277422734138
249,0.9491828719678139
250,0.9506380016622132
251,0.9520931313566117
252,0.9535482610510108
253,0.9550033907454134
254,0.9564585204398107
255,0.9579136501342131
256,0.9593687798286116
257,0.9608239095230121
258,0.9622790392174118
259,0.9637341689118095
260,0.9651892986062096
261,0.9666444283006091
262,0.9680995579950086
263,0.969554687689408
264,0.970809911371039
265,0.9718354117158882
266,0.9728609120607347
267,0.9692011964040123
268,0.9600803618152463
269,0.9441785128086596
270,0.9228676138046384
271,0.895268562573082
272,0.8633660552937515
273,0.8261259022917348
274,0.7775383030577915
275,0.7261362074368851
276,0.6712005226938552
277,0.6109727453480642
278,0.5475907194837756
279,0.4769278182931035
280,0.39927006756907424
281,0.31937856299076295
282,0.23111059346222396
283,0.14284262393368719
284,0.05457465440515208
285,-0.03363162779998785
286,-0.11854337969248052
287,-0.2017385903843979
288,-0.2874639059415077
289,-0.36816214265280156
290,-0.44347041051620806
291,-0.5187211069115231
292,-0.5827424472565824
293,-0.6451333564191998
294,-0.7075242655818154
295,-0.769915174744436
296,-0.8323060839070516
297,-0.8657502752153491
298,-0.887448424196487
299,-0.9091465731776204
300,-0.9305498122831583
301,-0.9482213741289071
302,-0.9487342468671741
303,-0.949246821413854
304,-0.9492314996212944
305,-0.9492161506277258
306,-0.9492008016341601
307,-0.949185452640596
308,-0.9491701036470287
309,-0.9491547546534601
310,-0.9491394056598949
311,-0.9491240566663283
312,-0.9491087076727632
313,-0.9490933586791958
314,-0.9490780096856296
315,-0.9490626606920632
316,-0.9490473116984967
317,-0.9490319627049294
318,-0.9490166137113628
319,-0.9490012647177976
320,-0.948985915724231
321,-0.9489705667306628
322,-0.9489552177370987
323,-0.9489398687435301
324,-0.9489245197499622
325,-0.9489091707563978
326,-0.9488938217628325
327,-0.9488784727692662
328,-0.9488631237756991
329,-0.9488477747821328
330,-0.9488324257885655
331,-0.9488170767949989
332,-0.9488017278014341
333,-0.94878669315293
334,-0.9488337640845214
335,-0.9488808350161161
336,-0.948927905947709
337,-0.9489749768793
338,-0.9490220478108934
339,-0.9490691187424846
340,-0.9491161896740775
341,-0.9491632606056682
342,-0.9492103315372632
343,-0.9492574024688542
344,-0.9493044734004473
345,-0.9493515443320398
346,-0.9493986152636321
347,-0.9494456861952248
348,-0.9494927571268171
349,-0.9495398280584083
350,-0.9495868989900021
351,-0.9496339699215922
352,-0.9496810408531869
353,-0.9497281117847779
354,-0.9497751827163708
355,-0.9498222536479642
356,-0.9498693245795554
357,-0.9499163955111488
358,-0.9499634664427413
359,-0.950010537374332
360,-0.9500576083059272
361,-0.9501046792375177
362,-0.95015175016911
363,-0.950198821100703
364,-0.9502458920322948
365,-0.9502929629638875
366,-0.9503400338954809
367,-0.9503871048270726
368,-0.9504341757586662
369,-0.950481246690258
370,-0.9505283176218514
371,-0.9505753885534428
372,-0.9506224594850347
373,-0.9506695304166287
374,-0.9507166013482201
375,-0.9507636722798137
376,-0.9508107432114047
377,-0.9508578141429963
378,-0.9508675900834186
379,-0.9508574487548648
380,-0.950847307426307
381,-0.9508371660977512
382,-0.9508270247691936
383,-0.9508168834406366
384,-0.9508067421120808
385,-0.9507966007835241
386,-0.9507864594549674
387,-0.9507763181264114
388,-0.9507661767978536
389,-0.950756035469298
390,-0.9507458941407408
391,-0.9507357528121841
392,-0.9507256114836266
393,-0.9507154701550694
394,-0.9507053288265138
395,-0.950695187497956
396,-0.9506850461694015
397,-0.9506749048408448
398,-0.9506647635122875
399,-0.9506533559164344
400,-0.9506404467213913
401,-0.9506275375263483
402,-0.9506146283313032
403,-0.9506017191362605
404,-0.9505888099412171
405,-0.9505759007461733
406,-0.9505629915511292
407,-0.9505500823560856
408,-0.9505371731610434
409,-0.9505242639659978
410,-0.9505113547709544
411,-0.9504984455759106
412,-0.9504855363808665
413,-0.9504726271858238
414,-0.9504597179907804
415,-0.9504468087957353
416,-0.9504338996006919
417,-0.9504209904056476
418,-0.9504080812106056
419,-0.9503951720155593
420,-0.9503822628205164
421,-0.9503693536254706
422,-0.9503564444304292
423,-0.9503435352353863
424,-0.9503306260403418
425,-0.950317716845298
426,-0.9503048076502537
427,-0.9502918984552112
428,-0.9502789892601665
429,-0.9502660800651231
430,-0.9502531708700784
431,-0.9502402616750362
432,-0.9502273524799923
433,-0.9502144432849468
434,-0.950201534089904
435,-0.9501886248948602
436,-0.9501757156998171
437,-0.9501628065047739
438,-0.9501498973097297
439,-0.9501369881146865
440,-0.9501240789196422
441,-0.9501111697245984
442,-0.9500982605295535
443,-0.9500853513345097
444,-0.9500724421394672
445,-0.9500595329444234
446,-0.9500466237493824
447,-0.9500337145543353
448,-0.9500208053592912
449,-0.950007896164249
450,-0.9499949869692058
451,-0.9499820777741607
452,-0.9499691685791173
453,-0.9499562593840735
454,-0.9499433501890281
455,-0.9499304409939856
456,-0.9499175317989431
457,-0.9499046226038993
458,-0.9498917134088544
459,-0.949878804213811
460,-0.9498658950187674
461,-0.9498529858237247
462,-0.9498400766286791
463,-0.9498271674336366
464,-0.949814258238593
465,-0.9498013490435503
466,-0.9497884398485049
467,-0.9497755306534611
468,-0.9497626214584177
469,-0.9497497122633728
470,-0.9497368030683319
471,-0.949723893873288
472,-0.9497109846782418
473,-0.9496980754831988
474,-0.9496851662881552
475,-0.9496722570931105
476,-0.9496593478980672
477,-0.9496464387030236
478,-0.9496335295079789
479,-0.9496206203129357
480,-0.9496077111178923
481,-0.9495948019228485
482,-0.9495818927278058
483,-0.9495689835327626
484,-0.9495560743377177
485,-0.9495431651426735
486,-0.9495302559476287
487,-0.9495173467525858
488,-0.9495044375575409
489,-0.9494915283624997
490,-0.9494786191674537
491,-0.9494657099724116
492,-0.949452800777368
493,-0.9494398915823247
494,-0.9494269823872806
495,-0.9494140731922368
496,-0.9494011639971932
497,-0.9493882548021481
498,-0.9493753456071051
499,-0.9493624364120624
500,-0.9493495272170177
501,-0.9493366180219737
502,-0.9493237088269307
503,-0.9493107996318869
504,-0.9492978904368433
505,-0.9492849812417995
506,-0.9492720720467552
507,-0.9492591628517112
508,-0.9492462536566656
509,-0.9492333444616233
510,-0.9492204352665797
511,-0.9492075260715372
512,-0.9491946168764932
513,-0.9491817076814478
514,-0.9491687984864056
515,-0.9491558892913606
516,-0.9491429800963166
517,-0.9491300709012748
518,-0.9491171617062303
519,-0.9491042525111854
520,-0.9490913433161431
521,-0.9490784341210977
522,-0.9490655249260568
523,-0.9490526157310123
524,-0.9490397065359674
525,-0.9490267973409244
526,-0.9490138881458811
527,-0.949000978950837
528,-0.9489880697557908
529,-0.9489751605607494
530,-0.9489622513657056
531,-0.9489493421706611
532,-0.9489364329756188
533,-0.9489235237805761
534,-0.94891061458553
535,-0.9488977053904858
536,-0.948884796195442
537,-0.9488718870003988
538,-0.9488589778053559
539,-0.9488460686103105
540,-0.9488331594152689
541,-0.9488202502202246
542,-0.9488073410251795
543,-0.9487944318301368
544,-0.9487815226350923
545,-0.9487686134400505
546,-0.9487557042450064
547,-0.9487427950499608
548,-0.9487298858549164
549,-0.9487169766598752
550,-0.9487040674648327
551,-0.9486911582697869
552,-0.9486782490747415
553,-0.9486653398796981
554,-0.9480052933636561
555,-0.9418777393365602
556,-0.914367353724047
557,-0.8863956590693375
558,-0.8417045885850803
559,-0.7836008488090261
560,-0.7138189494329199
561,-0.6440327337109958
562,-0.57424651798907
563,-0.5044603022671391
564,-0.43467408654521755
565,-0.3648878708232899
566,-0.2951016551013622
567,-0.22531543937943732
568,-0.15552922365751198
569,-0.08574300793558298
570,-0.015956792213658533
571,0.05382942350826936
572,0.12361563923019103
573,0.19340185495212325
574,0.2631880706740476
575,0.3329742863959715
576,0.4027605021178984
577,0.47254671783982516
578,0.5423329335617474
579,0.6121191492836793
580,0.6819053650056077
581,0.7516915807275301
582,0.8200214437206484
583,0.8654266159498359
584,0.8972827724689225
585,0.9270147859761965
586,0.9466747041388667
587,0.9509289244432267
588,0.9522630070977188
589,0.952233347640551
590,0.9522036881833831
591,0.9521740287262161
592,0.9521443692690483
593,0.9521147098118803
594,0.9520850503547129
595,0.9520553908975447
596,0.9520257314403769
597,0.9519960719832087
598,0.9519664125260417
599,0.9519367530688729
600,0.9519070936117063
601,0.9518774341545374
602,0.9518477746973717
603,0.9518181152402027
604,0.9517884557830346
605,0.951758796325867
606,0.9517291368686996
607,0.951699477411532
608,0.9516698179543633
609,0.9516401584971951
610,0.9516104990400304
611,0.9515808395828607
612,0.9515511801256936
613,0.9515215206685247
614,0.9514918612113572
615,0.951462201754189
616,0.9514325422970236
617,0.9514028828398541
618,0.9513732233826866
619,0.9513435639255194
620,0.9513139044683517
621,0.9512842450111839
622,0.9512545855540145
623,0.9512249260968482
624,0.9511952666396785
625,0.9511656071825109
626,0.951135947725345
627,0.9511062882681766
628,0.9510766288110102
629,0.9510469693538418
630,0.9510173098966742
631,0.9509876504395064
632,0.9509579909823372
633,0.9509283315251721
634,0.9508986720680032
635,0.9508690126108359
636,0.9508393531536673
637,0.950809693696501
638,0.9507800342393329
639,0.9507503747821634
640,0.950720715324997
641,0.9506910558678293
642,0.9506613964106619
643,0.9506317369534941
644,0.950602077496327
645,0.9505724180391578
646,0.9505427585819891
647,0.950513099124823
648,0.9504834396676557
649,0.9504537802104868
650,0.95042412075332
651,0.9503944612961516
652,0.950364801838984
653,0.9503351423818153
654,0.9503054829246489
655,0.9502758234674821
656,0.9502461640103123
657,0.950216504553146
658,0.9501868450959763
659,0.9501571856388091
660,0.9501275261816415
661,0.9500978667244738
662,0.9500682072673067
663,0.9500385478101395
664,0.9500088883529729
665,0.9499792288958031
666,0.9499495694386355
667,0.9499199099814679
668,0.9498902505243018
669,0.9498605910671329
670,0.9498309316099633
671,0.9498012721527965
672,0.9497716126956307
673,0.9497419532384622
674,0.9497122937812937
675,0.949682634324126
676,0.949652974866957
677,0.9496233154097901
678,0.9495936559526236
679,0.9495639964954541
680,0.9495343370382866
681,0.9495046775811208
682,0.9494750181239525
683,0.949445358666784
684,0.9494156992096151
685,0.9493860397524484
686,0.9493563802952821
687,0.9493267208381156
688,0.9492970613809447
689,0.9492674019237785
690,0.9492377424666111
691,0.9492080830094415
692,0.949178423552274
693,0.949148764095108
694,0.94911910463794
695,0.9490894451807713
696,0.9490597857236025
697,0.949030126266437
698,0.9490004668092673
699,0.9489708073520992
700,0.948941147894932
701,0.9489114884377658
702,0.9488818289805983
703,0.948852169523429
704,0.9488225100662617
705,0.9487928506090941
706,0.9487631911519263
707,0.9487335316947597
708,0.9487038722375923
709,0.9486742127804227
710,0.9486445533232537
711,0.9486148938660871
712,0.9485852344089204
713,0.948555574951753
714,0.9485259154945858
715,0.948496256037416
716,0.9484665965802499
717,0.9484369371230813
718,0.9484072776659153
719,0.9483776182087461
720,0.9483479587515794
721,0.9483182992944098
722,0.9482886398372414
723,0.9482589803800762
724,0.9482293209229059
725,0.9481996614657394
726,0.9481700020085728
727,0.9481403425514053
728,0.9481106830942353
729,0.9480810236370681
730,0.9480513641799007
731,0.9480217047227325
732,0.9479920452655666
733,0.9479623858083975
734,0.9479327263512305
735,0.9479030668940618
736,0.9478734074368955
737,0.9478437479797257
738,0.9478140885225576
739,0.9477844290653897
740,0.9477547696082225
741,0.947725110151056
742,0.9476954506938887
743,0.9476657912367203
744,0.9476361317795529
745,0.9476064723223862
746,0.9475768128652176
747,0.9475471534080483
748,0.9475174939508811
749,0.9474878344937129
750,0.9474581750365462
751,0.9474285155793801
752,0.9473988561222118
753,0.9473691966650415
754,0.9473395372078748
755,0.9473098777507066
756,0.94728021829354
757,0.9472505588363738
758,0.9472208993792045
759,0.9471912399220359
760,0.9471615804648708
761,0.947131921007703
762,0.947102261550535
763,0.9470726020933645
764,0.9470429426361965
765,0.9470132831790283
766,0.9469836237218602
767,0.9469539642646939
768,0.9469243048075278
769,0.9468946453503598
770,0.9468649858931937
771,0.9468353264360244
772,0.9468056669788549
773,0.9467760075216888
774,0.9467463480645213
775,0.9467166886073516
776,0.9466870291501873
777,0.9466573696930164
778,0.9466277102358486
779,0.9465980507786818
780,0.946568391321516
781,0.9465387318643456
782,0.94650907240718
783,0.9464794129500118
784,0.9464497534928437
785,0.9464200940356761
786,0.9463904345785057
787,0.9463607751213381
788,0.9463311156641714
789,0.9463014562070057
790,0.9462717967498363
791,0.9462421372926686
792,0.9462124778355006
793,0.9461828183783345
794,0.9461531589211651
795,0.946123499463998
796,0.9460938400068297
797,0.9460641805496637
798,0.946034521092497
799,0.9460048616353262
800,0.9459752021781612
801,0.9459455427209923
802,0.9459158832638236
803,0.9458862238066555
804,0.9458565643494887
805,0.9458269048923198
806,0.9457972454351552
807,0.945767585977987
808,0.9457379265208173
809,0.94570826706365
810,0.9456786076064826
811,0.9456489481493131
812,0.9456192886921484
813,0.9455896292349809
814,0.9463851466114338
815,0.947181567168936
816,0.9479779877264395
817,0.9487744082839373
818,0.9495708288414376
819,0.9503672493989391
820,0.951163669956438
821,0.9519600905139364
822,0.9527565110714397
823,0.9535529316289418
824,0.9543493521864422
825,0.9551457727439433
826,0.9559421933014433
827,0.9567386138589434
828,0.9575350344164456
829,0.9583314549739442
830,0.9591278755314455
831,0.9599242960889488
832,0.9607207166464495
833,0.9615171372039489
834,0.9623135577614493
835,0.9631099783189473
836,0.9639063988764509
837,0.9647028194339501
838,0.965499239991452
839,0.9662956605489513
840,0.9409206662649604
841,0.8843711420604335
842,0.8247188400248445
843,0.7649339189596549
844,0.7051487877398863
845,0.6453636565201051
846,0.5855785253003307
847,0.5257933940805636
848,0.4660082628607825
849,0.40622313164101764
850,0.34643800042123946
851,0.2866528692014574
852,0.2268677379816838
853,0.1670826067619185
854,0.1072974755421387
855,0.04751234432235857
856,-0.012272786897400745
857,-0.07205791811718998
858,-0.1318430493369539
859,-0.1916281805567283
860,-0.2514133117765017
861,-0.31119844299627675
862,-0.37098357421604955
863,-0.4307687054358159
